#  E (eV)   dos(E)     Int dos(E) EFermi =   14.432 eV
 -81.233  0.1419E-01  0.1419E-03
 -81.223  0.3462E-01  0.4881E-03
 -81.213  0.8104E-01  0.1298E-02
 -81.203  0.1819E+00  0.3118E-02
 -81.193  0.3918E+00  0.7036E-02
 -81.183  0.8096E+00  0.1513E-01
 -81.173  0.1605E+01  0.3118E-01
 -81.163  0.3055E+01  0.6173E-01
 -81.153  0.5580E+01  0.1175E+00
 -81.143  0.9786E+01  0.2154E+00
 -81.133  0.1648E+02  0.3802E+00
 -81.123  0.2667E+02  0.6469E+00
 -81.113  0.4145E+02  0.1061E+01
 -81.103  0.6191E+02  0.1680E+01
 -81.093  0.8891E+02  0.2570E+01
 -81.083  0.1228E+03  0.3797E+01
 -81.073  0.1631E+03  0.5428E+01
 -81.063  0.2084E+03  0.7512E+01
 -81.053  0.2563E+03  0.1008E+02
 -81.043  0.3036E+03  0.1311E+02
 -81.033  0.3464E+03  0.1658E+02
 -81.023  0.3807E+03  0.2038E+02
 -81.013  0.4033E+03  0.2441E+02
 -81.003  0.4118E+03  0.2853E+02
 -80.993  0.4056E+03  0.3259E+02
 -80.983  0.3853E+03  0.3644E+02
 -80.973  0.3530E+03  0.3997E+02
 -80.963  0.3121E+03  0.4309E+02
 -80.953  0.2663E+03  0.4576E+02
 -80.943  0.2192E+03  0.4795E+02
 -80.933  0.1741E+03  0.4969E+02
 -80.923  0.1334E+03  0.5102E+02
 -80.913  0.9853E+02  0.5201E+02
 -80.903  0.7020E+02  0.5271E+02
 -80.893  0.4820E+02  0.5319E+02
 -80.883  0.3190E+02  0.5351E+02
 -80.873  0.2033E+02  0.5371E+02
 -80.863  0.1247E+02  0.5384E+02
 -80.853  0.7367E+01  0.5391E+02
 -80.843  0.4186E+01  0.5395E+02
 -80.833  0.2288E+01  0.5398E+02
 -80.823  0.1202E+01  0.5399E+02
 -80.813  0.6067E+00  0.5399E+02
 -80.803  0.2942E+00  0.5400E+02
 -80.793  0.1370E+00  0.5400E+02
 -80.783  0.6128E-01  0.5400E+02
 -80.773  0.2630E-01  0.5400E+02
 -80.763  0.1083E-01  0.5400E+02
 -80.753  0.4281E-02  0.5400E+02
 -80.743  0.1623E-02  0.5400E+02
 -80.733  0.5898E-03  0.5400E+02
 -80.723  0.2056E-03  0.5400E+02
 -80.713  0.6871E-04  0.5400E+02
 -80.703  0.2201E-04  0.5400E+02
 -80.693  0.6760E-05  0.5400E+02
 -80.683  0.1990E-05  0.5400E+02
 -80.673  0.5613E-06  0.5400E+02
 -80.663  0.1517E-06  0.5400E+02
 -80.653  0.3929E-07  0.5400E+02
 -80.643  0.9752E-08  0.5400E+02
 -80.633  0.2319E-08  0.5400E+02
 -80.623  0.5282E-09  0.5400E+02
 -80.613  0.1153E-09  0.5400E+02
 -80.603  0.2410E-10  0.5400E+02
 -80.593  0.4826E-11  0.5400E+02
 -80.583  0.9259E-12  0.5400E+02
 -80.573  0.1702E-12  0.5400E+02
 -80.563  0.2995E-13  0.5400E+02
 -80.553  0.5051E-14  0.5400E+02
 -80.543  0.8157E-15  0.5400E+02
 -80.533  0.1262E-15  0.5400E+02
 -80.523  0.1870E-16  0.5400E+02
 -80.513  0.2653E-17  0.5400E+02
 -80.503  0.3607E-18  0.5400E+02
 -80.493  0.4696E-19  0.5400E+02
 -80.483  0.5855E-20  0.5400E+02
 -80.473  0.6993E-21  0.5400E+02
 -80.463  0.7999E-22  0.5400E+02
 -80.453  0.8763E-23  0.5400E+02
 -80.443  0.9195E-24  0.5400E+02
 -80.433  0.9240E-25  0.5400E+02
 -80.423  0.8893E-26  0.5400E+02
 -80.413  0.8197E-27  0.5400E+02
 -80.403  0.7237E-28  0.5400E+02
 -80.393  0.6119E-29  0.5400E+02
 -80.383  0.4955E-30  0.5400E+02
 -80.373  0.3843E-31  0.5400E+02
 -80.363  0.2855E-32  0.5400E+02
 -80.353  0.2031E-33  0.5400E+02
 -80.343  0.1384E-34  0.5400E+02
 -80.333  0.9028E-36  0.5400E+02
 -80.323  0.5642E-37  0.5400E+02
 -80.313  0.3377E-38  0.5400E+02
 -80.303  0.1936E-39  0.5400E+02
 -80.293  0.1063E-40  0.5400E+02
 -80.283  0.5587E-42  0.5400E+02
 -80.273  0.2813E-43  0.5400E+02
 -80.263  0.1357E-44  0.5400E+02
 -80.253  0.6266E-46  0.5400E+02
 -80.243  0.2772E-47  0.5400E+02
 -80.233  0.1174E-48  0.5400E+02
 -80.223  0.4764E-50  0.5400E+02
 -80.213  0.1851E-51  0.5400E+02
 -80.203  0.6889E-53  0.5400E+02
 -80.193  0.2455E-54  0.5400E+02
 -80.183  0.8381E-56  0.5400E+02
 -80.173  0.2740E-57  0.5400E+02
 -80.163  0.8578E-59  0.5400E+02
 -80.153  0.2572E-60  0.5400E+02
 -80.143  0.7386E-62  0.5400E+02
 -80.133  0.2031E-63  0.5400E+02
 -80.123  0.5351E-65  0.5400E+02
 -80.113  0.1350E-66  0.5400E+02
 -80.103  0.3261E-68  0.5400E+02
 -80.093  0.7545E-70  0.5400E+02
 -80.083  0.1672E-71  0.5400E+02
 -80.073  0.3548E-73  0.5400E+02
 -80.063  0.7212E-75  0.5400E+02
 -80.053  0.1404E-76  0.5400E+02
 -80.043  0.2618E-78  0.5400E+02
 -80.033  0.4691E-80  0.5400E+02
 -80.023  0.9726E-82  0.5400E+02
 -80.013  0.1866E-82  0.5400E+02
 -80.003  0.1749E-82  0.5400E+02
 -79.993  0.1749E-82  0.5400E+02
 -79.983  0.1749E-82  0.5400E+02
 -79.973  0.1749E-82  0.5400E+02
 -79.963  0.1749E-82  0.5400E+02
 -79.953  0.1749E-82  0.5400E+02
 -79.943  0.1749E-82  0.5400E+02
 -79.933  0.1749E-82  0.5400E+02
 -79.923  0.1749E-82  0.5400E+02
 -79.913  0.1749E-82  0.5400E+02
 -79.903  0.1749E-82  0.5400E+02
 -79.893  0.1749E-82  0.5400E+02
 -79.883  0.1749E-82  0.5400E+02
 -79.873  0.1749E-82  0.5400E+02
 -79.863  0.1749E-82  0.5400E+02
 -79.853  0.1749E-82  0.5400E+02
 -79.843  0.1749E-82  0.5400E+02
 -79.833  0.1749E-82  0.5400E+02
 -79.823  0.1749E-82  0.5400E+02
 -79.813  0.1749E-82  0.5400E+02
 -79.803  0.1749E-82  0.5400E+02
 -79.793  0.1749E-82  0.5400E+02
 -79.783  0.1749E-82  0.5400E+02
 -79.773  0.1749E-82  0.5400E+02
 -79.763  0.1749E-82  0.5400E+02
 -79.753  0.1749E-82  0.5400E+02
 -79.743  0.1749E-82  0.5400E+02
 -79.733  0.1749E-82  0.5400E+02
 -79.723  0.1749E-82  0.5400E+02
 -79.713  0.1749E-82  0.5400E+02
 -79.703  0.1749E-82  0.5400E+02
 -79.693  0.1749E-82  0.5400E+02
 -79.683  0.1749E-82  0.5400E+02
 -79.673  0.1749E-82  0.5400E+02
 -79.663  0.1749E-82  0.5400E+02
 -79.653  0.1749E-82  0.5400E+02
 -79.643  0.1749E-82  0.5400E+02
 -79.633  0.1749E-82  0.5400E+02
 -79.623  0.1749E-82  0.5400E+02
 -79.613  0.1749E-82  0.5400E+02
 -79.603  0.1749E-82  0.5400E+02
 -79.593  0.1749E-82  0.5400E+02
 -79.583  0.1749E-82  0.5400E+02
 -79.573  0.1749E-82  0.5400E+02
 -79.563  0.1749E-82  0.5400E+02
 -79.553  0.1749E-82  0.5400E+02
 -79.543  0.1749E-82  0.5400E+02
 -79.533  0.1749E-82  0.5400E+02
 -79.523  0.1749E-82  0.5400E+02
 -79.513  0.1749E-82  0.5400E+02
 -79.503  0.1749E-82  0.5400E+02
 -79.493  0.1749E-82  0.5400E+02
 -79.483  0.1749E-82  0.5400E+02
 -79.473  0.1749E-82  0.5400E+02
 -79.463  0.1749E-82  0.5400E+02
 -79.453  0.1749E-82  0.5400E+02
 -79.443  0.1749E-82  0.5400E+02
 -79.433  0.1749E-82  0.5400E+02
 -79.423  0.1749E-82  0.5400E+02
 -79.413  0.1749E-82  0.5400E+02
 -79.403  0.1749E-82  0.5400E+02
 -79.393  0.1749E-82  0.5400E+02
 -79.383  0.1749E-82  0.5400E+02
 -79.373  0.1749E-82  0.5400E+02
 -79.363  0.1749E-82  0.5400E+02
 -79.353  0.1749E-82  0.5400E+02
 -79.343  0.1749E-82  0.5400E+02
 -79.333  0.1749E-82  0.5400E+02
 -79.323  0.1749E-82  0.5400E+02
 -79.313  0.1749E-82  0.5400E+02
 -79.303  0.1749E-82  0.5400E+02
 -79.293  0.1749E-82  0.5400E+02
 -79.283  0.1749E-82  0.5400E+02
 -79.273  0.1749E-82  0.5400E+02
 -79.263  0.1749E-82  0.5400E+02
 -79.253  0.1749E-82  0.5400E+02
 -79.243  0.1749E-82  0.5400E+02
 -79.233  0.1749E-82  0.5400E+02
 -79.223  0.1749E-82  0.5400E+02
 -79.213  0.1749E-82  0.5400E+02
 -79.203  0.1749E-82  0.5400E+02
 -79.193  0.1749E-82  0.5400E+02
 -79.183  0.1749E-82  0.5400E+02
 -79.173  0.1749E-82  0.5400E+02
 -79.163  0.1749E-82  0.5400E+02
 -79.153  0.1749E-82  0.5400E+02
 -79.143  0.1749E-82  0.5400E+02
 -79.133  0.1749E-82  0.5400E+02
 -79.123  0.1749E-82  0.5400E+02
 -79.113  0.1749E-82  0.5400E+02
 -79.103  0.1749E-82  0.5400E+02
 -79.093  0.1749E-82  0.5400E+02
 -79.083  0.1749E-82  0.5400E+02
 -79.073  0.1749E-82  0.5400E+02
 -79.063  0.1749E-82  0.5400E+02
 -79.053  0.1749E-82  0.5400E+02
 -79.043  0.1749E-82  0.5400E+02
 -79.033  0.1749E-82  0.5400E+02
 -79.023  0.1749E-82  0.5400E+02
 -79.013  0.1749E-82  0.5400E+02
 -79.003  0.1749E-82  0.5400E+02
 -78.993  0.1749E-82  0.5400E+02
 -78.983  0.1749E-82  0.5400E+02
 -78.973  0.1749E-82  0.5400E+02
 -78.963  0.1749E-82  0.5400E+02
 -78.953  0.1749E-82  0.5400E+02
 -78.943  0.1749E-82  0.5400E+02
 -78.933  0.1749E-82  0.5400E+02
 -78.923  0.1749E-82  0.5400E+02
 -78.913  0.1749E-82  0.5400E+02
 -78.903  0.1749E-82  0.5400E+02
 -78.893  0.1749E-82  0.5400E+02
 -78.883  0.1749E-82  0.5400E+02
 -78.873  0.1749E-82  0.5400E+02
 -78.863  0.1749E-82  0.5400E+02
 -78.853  0.1749E-82  0.5400E+02
 -78.843  0.1749E-82  0.5400E+02
 -78.833  0.1749E-82  0.5400E+02
 -78.823  0.1749E-82  0.5400E+02
 -78.813  0.1749E-82  0.5400E+02
 -78.803  0.1749E-82  0.5400E+02
 -78.793  0.1749E-82  0.5400E+02
 -78.783  0.1749E-82  0.5400E+02
 -78.773  0.1749E-82  0.5400E+02
 -78.763  0.1749E-82  0.5400E+02
 -78.753  0.1749E-82  0.5400E+02
 -78.743  0.1749E-82  0.5400E+02
 -78.733  0.1749E-82  0.5400E+02
 -78.723  0.1749E-82  0.5400E+02
 -78.713  0.1749E-82  0.5400E+02
 -78.703  0.1749E-82  0.5400E+02
 -78.693  0.1749E-82  0.5400E+02
 -78.683  0.1749E-82  0.5400E+02
 -78.673  0.1749E-82  0.5400E+02
 -78.663  0.1749E-82  0.5400E+02
 -78.653  0.1749E-82  0.5400E+02
 -78.643  0.1749E-82  0.5400E+02
 -78.633  0.1749E-82  0.5400E+02
 -78.623  0.1749E-82  0.5400E+02
 -78.613  0.1749E-82  0.5400E+02
 -78.603  0.1749E-82  0.5400E+02
 -78.593  0.1749E-82  0.5400E+02
 -78.583  0.1749E-82  0.5400E+02
 -78.573  0.1749E-82  0.5400E+02
 -78.563  0.1749E-82  0.5400E+02
 -78.553  0.1749E-82  0.5400E+02
 -78.543  0.1749E-82  0.5400E+02
 -78.533  0.1749E-82  0.5400E+02
 -78.523  0.1749E-82  0.5400E+02
 -78.513  0.1749E-82  0.5400E+02
 -78.503  0.1749E-82  0.5400E+02
 -78.493  0.1749E-82  0.5400E+02
 -78.483  0.1749E-82  0.5400E+02
 -78.473  0.1749E-82  0.5400E+02
 -78.463  0.1749E-82  0.5400E+02
 -78.453  0.1749E-82  0.5400E+02
 -78.443  0.1749E-82  0.5400E+02
 -78.433  0.1749E-82  0.5400E+02
 -78.423  0.1749E-82  0.5400E+02
 -78.413  0.1749E-82  0.5400E+02
 -78.403  0.1749E-82  0.5400E+02
 -78.393  0.1749E-82  0.5400E+02
 -78.383  0.1749E-82  0.5400E+02
 -78.373  0.1749E-82  0.5400E+02
 -78.363  0.1749E-82  0.5400E+02
 -78.353  0.1749E-82  0.5400E+02
 -78.343  0.1749E-82  0.5400E+02
 -78.333  0.1749E-82  0.5400E+02
 -78.323  0.1749E-82  0.5400E+02
 -78.313  0.1749E-82  0.5400E+02
 -78.303  0.1749E-82  0.5400E+02
 -78.293  0.1749E-82  0.5400E+02
 -78.283  0.1749E-82  0.5400E+02
 -78.273  0.1749E-82  0.5400E+02
 -78.263  0.1749E-82  0.5400E+02
 -78.253  0.1749E-82  0.5400E+02
 -78.243  0.1749E-82  0.5400E+02
 -78.233  0.1749E-82  0.5400E+02
 -78.223  0.1749E-82  0.5400E+02
 -78.213  0.1749E-82  0.5400E+02
 -78.203  0.1749E-82  0.5400E+02
 -78.193  0.1749E-82  0.5400E+02
 -78.183  0.1749E-82  0.5400E+02
 -78.173  0.1749E-82  0.5400E+02
 -78.163  0.1749E-82  0.5400E+02
 -78.153  0.1749E-82  0.5400E+02
 -78.143  0.1749E-82  0.5400E+02
 -78.133  0.1749E-82  0.5400E+02
 -78.123  0.1749E-82  0.5400E+02
 -78.113  0.1749E-82  0.5400E+02
 -78.103  0.1749E-82  0.5400E+02
 -78.093  0.1749E-82  0.5400E+02
 -78.083  0.1749E-82  0.5400E+02
 -78.073  0.1749E-82  0.5400E+02
 -78.063  0.1749E-82  0.5400E+02
 -78.053  0.1749E-82  0.5400E+02
 -78.043  0.1749E-82  0.5400E+02
 -78.033  0.1749E-82  0.5400E+02
 -78.023  0.1749E-82  0.5400E+02
 -78.013  0.1749E-82  0.5400E+02
 -78.003  0.1749E-82  0.5400E+02
 -77.993  0.1749E-82  0.5400E+02
 -77.983  0.1749E-82  0.5400E+02
 -77.973  0.1749E-82  0.5400E+02
 -77.963  0.1781E-82  0.5400E+02
 -77.953  0.3849E-82  0.5400E+02
 -77.943  0.1242E-80  0.5400E+02
 -77.933  0.6831E-79  0.5400E+02
 -77.923  0.3648E-77  0.5400E+02
 -77.913  0.1866E-75  0.5400E+02
 -77.903  0.9145E-74  0.5400E+02
 -77.893  0.4291E-72  0.5400E+02
 -77.883  0.1928E-70  0.5400E+02
 -77.873  0.8299E-69  0.5400E+02
 -77.863  0.3421E-67  0.5400E+02
 -77.853  0.1350E-65  0.5400E+02
 -77.843  0.5105E-64  0.5400E+02
 -77.833  0.1848E-62  0.5400E+02
 -77.823  0.6409E-61  0.5400E+02
 -77.813  0.2128E-59  0.5400E+02
 -77.803  0.6768E-58  0.5400E+02
 -77.793  0.2062E-56  0.5400E+02
 -77.783  0.6013E-55  0.5400E+02
 -77.773  0.1680E-53  0.5400E+02
 -77.763  0.4495E-52  0.5400E+02
 -77.753  0.1152E-50  0.5400E+02
 -77.743  0.2826E-49  0.5400E+02
 -77.733  0.6642E-48  0.5400E+02
 -77.723  0.1495E-46  0.5400E+02
 -77.713  0.3222E-45  0.5400E+02
 -77.703  0.6652E-44  0.5400E+02
 -77.693  0.1315E-42  0.5400E+02
 -77.683  0.2490E-41  0.5400E+02
 -77.673  0.4515E-40  0.5400E+02
 -77.663  0.7841E-39  0.5400E+02
 -77.653  0.1304E-37  0.5400E+02
 -77.643  0.2077E-36  0.5400E+02
 -77.633  0.3169E-35  0.5400E+02
 -77.623  0.4630E-34  0.5400E+02
 -77.613  0.6478E-33  0.5400E+02
 -77.603  0.8680E-32  0.5400E+02
 -77.593  0.1114E-30  0.5400E+02
 -77.583  0.1369E-29  0.5400E+02
 -77.573  0.1611E-28  0.5400E+02
 -77.563  0.1816E-27  0.5400E+02
 -77.553  0.1961E-26  0.5400E+02
 -77.543  0.2028E-25  0.5400E+02
 -77.533  0.2008E-24  0.5400E+02
 -77.523  0.1904E-23  0.5400E+02
 -77.513  0.1729E-22  0.5400E+02
 -77.503  0.1504E-21  0.5400E+02
 -77.493  0.1253E-20  0.5400E+02
 -77.483  0.9995E-20  0.5400E+02
 -77.473  0.7636E-19  0.5400E+02
 -77.463  0.5587E-18  0.5400E+02
 -77.453  0.3915E-17  0.5400E+02
 -77.443  0.2628E-16  0.5400E+02
 -77.433  0.1689E-15  0.5400E+02
 -77.423  0.1040E-14  0.5400E+02
 -77.413  0.6129E-14  0.5400E+02
 -77.403  0.3460E-13  0.5400E+02
 -77.393  0.1871E-12  0.5400E+02
 -77.383  0.9688E-12  0.5400E+02
 -77.373  0.4805E-11  0.5400E+02
 -77.363  0.2282E-10  0.5400E+02
 -77.353  0.1038E-09  0.5400E+02
 -77.343  0.4522E-09  0.5400E+02
 -77.333  0.1887E-08  0.5400E+02
 -77.323  0.7538E-08  0.5400E+02
 -77.313  0.2884E-07  0.5400E+02
 -77.303  0.1057E-06  0.5400E+02
 -77.293  0.3710E-06  0.5400E+02
 -77.283  0.1247E-05  0.5400E+02
 -77.273  0.4014E-05  0.5400E+02
 -77.263  0.1238E-04  0.5400E+02
 -77.253  0.3654E-04  0.5400E+02
 -77.243  0.1033E-03  0.5400E+02
 -77.233  0.2798E-03  0.5400E+02
 -77.223  0.7257E-03  0.5400E+02
 -77.213  0.1802E-02  0.5400E+02
 -77.203  0.4288E-02  0.5400E+02
 -77.193  0.9768E-02  0.5400E+02
 -77.183  0.2131E-01  0.5400E+02
 -77.173  0.4453E-01  0.5400E+02
 -77.163  0.8911E-01  0.5400E+02
 -77.153  0.1708E+00  0.5400E+02
 -77.143  0.3135E+00  0.5401E+02
 -77.133  0.5510E+00  0.5401E+02
 -77.123  0.9276E+00  0.5402E+02
 -77.113  0.1496E+01  0.5404E+02
 -77.103  0.2309E+01  0.5406E+02
 -77.093  0.3415E+01  0.5409E+02
 -77.083  0.4836E+01  0.5414E+02
 -77.073  0.6560E+01  0.5421E+02
 -77.063  0.8521E+01  0.5429E+02
 -77.053  0.1060E+02  0.5440E+02
 -77.043  0.1263E+02  0.5452E+02
 -77.033  0.1441E+02  0.5467E+02
 -77.023  0.1575E+02  0.5483E+02
 -77.013  0.1648E+02  0.5499E+02
 -77.003  0.1652E+02  0.5516E+02
 -76.993  0.1585E+02  0.5531E+02
 -76.983  0.1457E+02  0.5546E+02
 -76.973  0.1283E+02  0.5559E+02
 -76.963  0.1082E+02  0.5570E+02
 -76.953  0.8735E+01  0.5578E+02
 -76.943  0.6755E+01  0.5585E+02
 -76.933  0.5003E+01  0.5590E+02
 -76.923  0.3549E+01  0.5594E+02
 -76.913  0.2411E+01  0.5596E+02
 -76.903  0.1568E+01  0.5598E+02
 -76.893  0.9771E+00  0.5599E+02
 -76.883  0.5830E+00  0.5599E+02
 -76.873  0.3332E+00  0.5600E+02
 -76.863  0.1824E+00  0.5600E+02
 -76.853  0.9558E-01  0.5600E+02
 -76.843  0.4798E-01  0.5600E+02
 -76.833  0.2307E-01  0.5600E+02
 -76.823  0.1062E-01  0.5600E+02
 -76.813  0.4683E-02  0.5600E+02
 -76.803  0.1977E-02  0.5600E+02
 -76.793  0.7997E-03  0.5600E+02
 -76.783  0.3097E-03  0.5600E+02
 -76.773  0.1149E-03  0.5600E+02
 -76.763  0.4082E-04  0.5600E+02
 -76.753  0.1389E-04  0.5600E+02
 -76.743  0.4525E-05  0.5600E+02
 -76.733  0.1412E-05  0.5600E+02
 -76.723  0.4220E-06  0.5600E+02
 -76.713  0.1208E-06  0.5600E+02
 -76.703  0.3310E-07  0.5600E+02
 -76.693  0.8691E-08  0.5600E+02
 -76.683  0.2185E-08  0.5600E+02
 -76.673  0.5261E-09  0.5600E+02
 -76.663  0.1213E-09  0.5600E+02
 -76.653  0.2679E-10  0.5600E+02
 -76.643  0.5666E-11  0.5600E+02
 -76.633  0.1148E-11  0.5600E+02
 -76.623  0.2226E-12  0.5600E+02
 -76.613  0.4136E-13  0.5600E+02
 -76.603  0.7359E-14  0.5600E+02
 -76.593  0.1254E-14  0.5600E+02
 -76.583  0.2046E-15  0.5600E+02
 -76.573  0.3198E-16  0.5600E+02
 -76.563  0.4787E-17  0.5600E+02
 -76.553  0.6862E-18  0.5600E+02
 -76.543  0.9421E-19  0.5600E+02
 -76.533  0.1239E-19  0.5600E+02
 -76.523  0.1560E-20  0.5600E+02
 -76.513  0.1881E-21  0.5600E+02
 -76.503  0.2172E-22  0.5600E+02
 -76.493  0.2403E-23  0.5600E+02
 -76.483  0.2545E-24  0.5600E+02
 -76.473  0.2582E-25  0.5600E+02
 -76.463  0.2509E-26  0.5600E+02
 -76.453  0.2334E-27  0.5600E+02
 -76.443  0.2080E-28  0.5600E+02
 -76.433  0.1775E-29  0.5600E+02
 -76.423  0.1451E-30  0.5600E+02
 -76.413  0.1136E-31  0.5600E+02
 -76.403  0.8514E-33  0.5600E+02
 -76.393  0.6112E-34  0.5600E+02
 -76.383  0.4203E-35  0.5600E+02
 -76.373  0.2768E-36  0.5600E+02
 -76.363  0.1745E-37  0.5600E+02
 -76.353  0.1054E-38  0.5600E+02
 -76.343  0.6097E-40  0.5600E+02
 -76.333  0.3378E-41  0.5600E+02
 -76.323  0.1792E-42  0.5600E+02
 -76.313  0.9105E-44  0.5600E+02
 -76.303  0.4431E-45  0.5600E+02
 -76.293  0.2065E-46  0.5600E+02
 -76.283  0.9215E-48  0.5600E+02
 -76.273  0.3939E-49  0.5600E+02
 -76.263  0.1612E-50  0.5600E+02
 -76.253  0.6321E-52  0.5600E+02
 -76.243  0.2373E-53  0.5600E+02
 -76.233  0.8534E-55  0.5600E+02
 -76.223  0.2939E-56  0.5600E+02
 -76.213  0.9693E-58  0.5600E+02
 -76.203  0.3062E-59  0.5600E+02
 -76.193  0.9261E-61  0.5600E+02
 -76.183  0.2683E-62  0.5600E+02
 -76.173  0.7444E-64  0.5600E+02
 -76.163  0.1978E-65  0.5600E+02
 -76.153  0.5033E-67  0.5600E+02
 -76.143  0.1227E-68  0.5600E+02
 -76.133  0.2863E-70  0.5600E+02
 -76.123  0.6400E-72  0.5600E+02
 -76.113  0.1370E-73  0.5600E+02
 -76.103  0.2809E-75  0.5600E+02
 -76.093  0.5516E-77  0.5600E+02
 -76.083  0.1037E-78  0.5600E+02
 -76.073  0.1885E-80  0.5600E+02
 -76.063  0.4969E-82  0.5600E+02
 -76.053  0.1800E-82  0.5600E+02
 -76.043  0.1749E-82  0.5600E+02
 -76.033  0.1749E-82  0.5600E+02
 -76.023  0.1749E-82  0.5600E+02
 -76.013  0.1749E-82  0.5600E+02
 -76.003  0.1749E-82  0.5600E+02
 -75.993  0.1749E-82  0.5600E+02
 -75.983  0.1749E-82  0.5600E+02
 -75.973  0.1749E-82  0.5600E+02
 -75.963  0.1749E-82  0.5600E+02
 -75.953  0.1749E-82  0.5600E+02
 -75.943  0.1749E-82  0.5600E+02
 -75.933  0.1749E-82  0.5600E+02
 -75.923  0.1749E-82  0.5600E+02
 -75.913  0.1749E-82  0.5600E+02
 -75.903  0.1749E-82  0.5600E+02
 -75.893  0.1749E-82  0.5600E+02
 -75.883  0.1749E-82  0.5600E+02
 -75.873  0.1749E-82  0.5600E+02
 -75.863  0.1749E-82  0.5600E+02
 -75.853  0.1749E-82  0.5600E+02
 -75.843  0.1749E-82  0.5600E+02
 -75.833  0.1749E-82  0.5600E+02
 -75.823  0.1749E-82  0.5600E+02
 -75.813  0.1749E-82  0.5600E+02
 -75.803  0.1749E-82  0.5600E+02
 -75.793  0.1749E-82  0.5600E+02
 -75.783  0.1749E-82  0.5600E+02
 -75.773  0.1749E-82  0.5600E+02
 -75.763  0.1749E-82  0.5600E+02
 -75.753  0.1749E-82  0.5600E+02
 -75.743  0.1749E-82  0.5600E+02
 -75.733  0.1749E-82  0.5600E+02
 -75.723  0.1749E-82  0.5600E+02
 -75.713  0.1749E-82  0.5600E+02
 -75.703  0.1749E-82  0.5600E+02
 -75.693  0.1749E-82  0.5600E+02
 -75.683  0.1749E-82  0.5600E+02
 -75.673  0.1749E-82  0.5600E+02
 -75.663  0.1749E-82  0.5600E+02
 -75.653  0.1749E-82  0.5600E+02
 -75.643  0.1749E-82  0.5600E+02
 -75.633  0.1749E-82  0.5600E+02
 -75.623  0.1749E-82  0.5600E+02
 -75.613  0.1749E-82  0.5600E+02
 -75.603  0.1749E-82  0.5600E+02
 -75.593  0.1749E-82  0.5600E+02
 -75.583  0.1749E-82  0.5600E+02
 -75.573  0.1749E-82  0.5600E+02
 -75.563  0.1749E-82  0.5600E+02
 -75.553  0.1749E-82  0.5600E+02
 -75.543  0.1749E-82  0.5600E+02
 -75.533  0.1749E-82  0.5600E+02
 -75.523  0.1749E-82  0.5600E+02
 -75.513  0.1749E-82  0.5600E+02
 -75.503  0.1749E-82  0.5600E+02
 -75.493  0.1749E-82  0.5600E+02
 -75.483  0.1749E-82  0.5600E+02
 -75.473  0.1749E-82  0.5600E+02
 -75.463  0.1749E-82  0.5600E+02
 -75.453  0.1749E-82  0.5600E+02
 -75.443  0.1749E-82  0.5600E+02
 -75.433  0.1749E-82  0.5600E+02
 -75.423  0.1749E-82  0.5600E+02
 -75.413  0.1749E-82  0.5600E+02
 -75.403  0.1749E-82  0.5600E+02
 -75.393  0.1749E-82  0.5600E+02
 -75.383  0.1749E-82  0.5600E+02
 -75.373  0.1749E-82  0.5600E+02
 -75.363  0.1749E-82  0.5600E+02
 -75.353  0.1749E-82  0.5600E+02
 -75.343  0.1749E-82  0.5600E+02
 -75.333  0.1749E-82  0.5600E+02
 -75.323  0.1749E-82  0.5600E+02
 -75.313  0.1749E-82  0.5600E+02
 -75.303  0.1749E-82  0.5600E+02
 -75.293  0.1749E-82  0.5600E+02
 -75.283  0.1749E-82  0.5600E+02
 -75.273  0.1749E-82  0.5600E+02
 -75.263  0.1749E-82  0.5600E+02
 -75.253  0.1749E-82  0.5600E+02
 -75.243  0.1749E-82  0.5600E+02
 -75.233  0.1749E-82  0.5600E+02
 -75.223  0.1749E-82  0.5600E+02
 -75.213  0.1749E-82  0.5600E+02
 -75.203  0.1749E-82  0.5600E+02
