#  E (eV)   dos(E)     Int dos(E) EFermi =   14.575 eV
 -84.018  0.2047E-02  0.2047E-04
 -84.008  0.4839E-02  0.6886E-04
 -83.998  0.1096E-01  0.1784E-03
 -83.988  0.2376E-01  0.4160E-03
 -83.978  0.4933E-01  0.9093E-03
 -83.968  0.9811E-01  0.1890E-02
 -83.958  0.1869E+00  0.3759E-02
 -83.948  0.3409E+00  0.7168E-02
 -83.938  0.5954E+00  0.1312E-01
 -83.928  0.9962E+00  0.2308E-01
 -83.918  0.1596E+01  0.3905E-01
 -83.908  0.2449E+01  0.6354E-01
 -83.898  0.3600E+01  0.9954E-01
 -83.888  0.5066E+01  0.1502E+00
 -83.878  0.6829E+01  0.2185E+00
 -83.868  0.8816E+01  0.3066E+00
 -83.858  0.1090E+02  0.4156E+00
 -83.848  0.1290E+02  0.5447E+00
 -83.838  0.1463E+02  0.6910E+00
 -83.828  0.1589E+02  0.8499E+00
 -83.818  0.1653E+02  0.1015E+01
 -83.808  0.1646E+02  0.1180E+01
 -83.798  0.1570E+02  0.1337E+01
 -83.788  0.1435E+02  0.1480E+01
 -83.778  0.1255E+02  0.1606E+01
 -83.768  0.1052E+02  0.1711E+01
 -83.758  0.8441E+01  0.1795E+01
 -83.748  0.6487E+01  0.1860E+01
 -83.738  0.4775E+01  0.1908E+01
 -83.728  0.3366E+01  0.1942E+01
 -83.718  0.2272E+01  0.1964E+01
 -83.708  0.1469E+01  0.1979E+01
 -83.698  0.9096E+00  0.1988E+01
 -83.688  0.5394E+00  0.1994E+01
 -83.678  0.3064E+00  0.1997E+01
 -83.668  0.1666E+00  0.1998E+01
 -83.658  0.8680E-01  0.1999E+01
 -83.648  0.4330E-01  0.2000E+01
 -83.638  0.2069E-01  0.2000E+01
 -83.628  0.9466E-02  0.2000E+01
 -83.618  0.4148E-02  0.2000E+01
 -83.608  0.1741E-02  0.2000E+01
 -83.598  0.6996E-03  0.2000E+01
 -83.588  0.2693E-03  0.2000E+01
 -83.578  0.9928E-04  0.2000E+01
 -83.568  0.3505E-04  0.2000E+01
 -83.558  0.1185E-04  0.2000E+01
 -83.548  0.3838E-05  0.2000E+01
 -83.538  0.1190E-05  0.2000E+01
 -83.528  0.3535E-06  0.2000E+01
 -83.518  0.1005E-06  0.2000E+01
 -83.508  0.2739E-07  0.2000E+01
 -83.498  0.7145E-08  0.2000E+01
 -83.488  0.1785E-08  0.2000E+01
 -83.478  0.4272E-09  0.2000E+01
 -83.468  0.9790E-10  0.2000E+01
 -83.458  0.2149E-10  0.2000E+01
 -83.448  0.4516E-11  0.2000E+01
 -83.438  0.9091E-12  0.2000E+01
 -83.428  0.1753E-12  0.2000E+01
 -83.418  0.3236E-13  0.2000E+01
 -83.408  0.5722E-14  0.2000E+01
 -83.398  0.9689E-15  0.2000E+01
 -83.388  0.1571E-15  0.2000E+01
 -83.378  0.2441E-16  0.2000E+01
 -83.368  0.3631E-17  0.2000E+01
 -83.358  0.5172E-18  0.2000E+01
 -83.348  0.7057E-19  0.2000E+01
 -83.338  0.9221E-20  0.2000E+01
 -83.328  0.1154E-20  0.2000E+01
 -83.318  0.1383E-21  0.2000E+01
 -83.308  0.1587E-22  0.2000E+01
 -83.298  0.1745E-23  0.2000E+01
 -83.288  0.1837E-24  0.2000E+01
 -83.278  0.1852E-25  0.2000E+01
 -83.268  0.1788E-26  0.2000E+01
 -83.258  0.1653E-27  0.2000E+01
 -83.248  0.1464E-28  0.2000E+01
 -83.238  0.1242E-29  0.2000E+01
 -83.228  0.1009E-30  0.2000E+01
 -83.218  0.7847E-32  0.2000E+01
 -83.208  0.5846E-33  0.2000E+01
 -83.198  0.4171E-34  0.2000E+01
 -83.188  0.2850E-35  0.2000E+01
 -83.178  0.1865E-36  0.2000E+01
 -83.168  0.1169E-37  0.2000E+01
 -83.158  0.7017E-39  0.2000E+01
 -83.148  0.4034E-40  0.2000E+01
 -83.138  0.2221E-41  0.2000E+01
 -83.128  0.1171E-42  0.2000E+01
 -83.118  0.5912E-44  0.2000E+01
 -83.108  0.2859E-45  0.2000E+01
 -83.098  0.1324E-46  0.2000E+01
 -83.088  0.5873E-48  0.2000E+01
 -83.078  0.2495E-49  0.2000E+01
 -83.068  0.1015E-50  0.2000E+01
 -83.058  0.3955E-52  0.2000E+01
 -83.048  0.1476E-53  0.2000E+01
 -83.038  0.5273E-55  0.2000E+01
 -83.028  0.1805E-56  0.2000E+01
 -83.018  0.5915E-58  0.2000E+01
 -83.008  0.1857E-59  0.2000E+01
 -82.998  0.5582E-61  0.2000E+01
 -82.988  0.1607E-62  0.2000E+01
 -82.978  0.4431E-64  0.2000E+01
 -82.968  0.1170E-65  0.2000E+01
 -82.958  0.2959E-67  0.2000E+01
 -82.948  0.7167E-69  0.2000E+01
 -82.938  0.1662E-70  0.2000E+01
 -82.928  0.3693E-72  0.2000E+01
 -82.918  0.7857E-74  0.2000E+01
 -82.908  0.1601E-75  0.2000E+01
 -82.898  0.3124E-77  0.2000E+01
 -82.888  0.5840E-79  0.2000E+01
 -82.878  0.1062E-80  0.2000E+01
 -82.868  0.3538E-82  0.2000E+01
 -82.858  0.1776E-82  0.2000E+01
 -82.848  0.1749E-82  0.2000E+01
 -82.838  0.1749E-82  0.2000E+01
 -82.828  0.1749E-82  0.2000E+01
 -82.818  0.1749E-82  0.2000E+01
 -82.808  0.1749E-82  0.2000E+01
 -82.798  0.1749E-82  0.2000E+01
 -82.788  0.1749E-82  0.2000E+01
 -82.778  0.1749E-82  0.2000E+01
 -82.768  0.1749E-82  0.2000E+01
 -82.758  0.1749E-82  0.2000E+01
 -82.748  0.1749E-82  0.2000E+01
 -82.738  0.1749E-82  0.2000E+01
 -82.728  0.1749E-82  0.2000E+01
 -82.718  0.1749E-82  0.2000E+01
 -82.708  0.1749E-82  0.2000E+01
 -82.698  0.1749E-82  0.2000E+01
 -82.688  0.1749E-82  0.2000E+01
 -82.678  0.1749E-82  0.2000E+01
 -82.668  0.1749E-82  0.2000E+01
 -82.658  0.1749E-82  0.2000E+01
 -82.648  0.1749E-82  0.2000E+01
 -82.638  0.1749E-82  0.2000E+01
 -82.628  0.1749E-82  0.2000E+01
 -82.618  0.1749E-82  0.2000E+01
 -82.608  0.1749E-82  0.2000E+01
 -82.598  0.1749E-82  0.2000E+01
 -82.588  0.1749E-82  0.2000E+01
 -82.578  0.1749E-82  0.2000E+01
 -82.568  0.1749E-82  0.2000E+01
 -82.558  0.1749E-82  0.2000E+01
 -82.548  0.1749E-82  0.2000E+01
 -82.538  0.1749E-82  0.2000E+01
 -82.528  0.1749E-82  0.2000E+01
 -82.518  0.1749E-82  0.2000E+01
 -82.508  0.1749E-82  0.2000E+01
 -82.498  0.1749E-82  0.2000E+01
 -82.488  0.1749E-82  0.2000E+01
 -82.478  0.1749E-82  0.2000E+01
 -82.468  0.1749E-82  0.2000E+01
 -82.458  0.1749E-82  0.2000E+01
 -82.448  0.1749E-82  0.2000E+01
 -82.438  0.1749E-82  0.2000E+01
 -82.428  0.1749E-82  0.2000E+01
 -82.418  0.1749E-82  0.2000E+01
 -82.408  0.1749E-82  0.2000E+01
 -82.398  0.1749E-82  0.2000E+01
 -82.388  0.1749E-82  0.2000E+01
 -82.378  0.1749E-82  0.2000E+01
 -82.368  0.1749E-82  0.2000E+01
 -82.358  0.1749E-82  0.2000E+01
 -82.348  0.1749E-82  0.2000E+01
 -82.338  0.1749E-82  0.2000E+01
 -82.328  0.1749E-82  0.2000E+01
 -82.318  0.1749E-82  0.2000E+01
 -82.308  0.1749E-82  0.2000E+01
 -82.298  0.1749E-82  0.2000E+01
 -82.288  0.1749E-82  0.2000E+01
 -82.278  0.1749E-82  0.2000E+01
 -82.268  0.1749E-82  0.2000E+01
 -82.258  0.1749E-82  0.2000E+01
 -82.248  0.1749E-82  0.2000E+01
 -82.238  0.1749E-82  0.2000E+01
 -82.228  0.1749E-82  0.2000E+01
 -82.218  0.1749E-82  0.2000E+01
 -82.208  0.1749E-82  0.2000E+01
 -82.198  0.1749E-82  0.2000E+01
 -82.188  0.1749E-82  0.2000E+01
 -82.178  0.1749E-82  0.2000E+01
 -82.168  0.1749E-82  0.2000E+01
 -82.158  0.1749E-82  0.2000E+01
 -82.148  0.1749E-82  0.2000E+01
 -82.138  0.1749E-82  0.2000E+01
 -82.128  0.1749E-82  0.2000E+01
 -82.118  0.1749E-82  0.2000E+01
 -82.108  0.1749E-82  0.2000E+01
 -82.098  0.1749E-82  0.2000E+01
 -82.088  0.1749E-82  0.2000E+01
 -82.078  0.1749E-82  0.2000E+01
 -82.068  0.1749E-82  0.2000E+01
 -82.058  0.1749E-82  0.2000E+01
 -82.048  0.1749E-82  0.2000E+01
 -82.038  0.1749E-82  0.2000E+01
 -82.028  0.1749E-82  0.2000E+01
 -82.018  0.1749E-82  0.2000E+01
 -82.008  0.1749E-82  0.2000E+01
 -81.998  0.1749E-82  0.2000E+01
 -81.988  0.1749E-82  0.2000E+01
 -81.978  0.1749E-82  0.2000E+01
 -81.968  0.1749E-82  0.2000E+01
 -81.958  0.1749E-82  0.2000E+01
 -81.948  0.1749E-82  0.2000E+01
 -81.938  0.1749E-82  0.2000E+01
 -81.928  0.1749E-82  0.2000E+01
 -81.918  0.1749E-82  0.2000E+01
 -81.908  0.1749E-82  0.2000E+01
 -81.898  0.1749E-82  0.2000E+01
 -81.888  0.1749E-82  0.2000E+01
 -81.878  0.1749E-82  0.2000E+01
 -81.868  0.1749E-82  0.2000E+01
 -81.858  0.1791E-82  0.2000E+01
 -81.848  0.6275E-82  0.2000E+01
 -81.838  0.2737E-80  0.2000E+01
 -81.828  0.1545E-78  0.2000E+01
 -81.818  0.8402E-77  0.2000E+01
 -81.808  0.4377E-75  0.2000E+01
 -81.798  0.2184E-73  0.2000E+01
 -81.788  0.1044E-71  0.2000E+01
 -81.778  0.4779E-70  0.2000E+01
 -81.768  0.2095E-68  0.2000E+01
 -81.758  0.8799E-67  0.2000E+01
 -81.748  0.3539E-65  0.2000E+01
 -81.738  0.1364E-63  0.2000E+01
 -81.728  0.5032E-62  0.2000E+01
 -81.718  0.1779E-60  0.2000E+01
 -81.708  0.6022E-59  0.2000E+01
 -81.698  0.1953E-57  0.2000E+01
 -81.688  0.6066E-56  0.2000E+01
 -81.678  0.1805E-54  0.2000E+01
 -81.668  0.5142E-53  0.2000E+01
 -81.658  0.1403E-51  0.2000E+01
 -81.648  0.3669E-50  0.2000E+01
 -81.638  0.9188E-49  0.2000E+01
 -81.628  0.2204E-47  0.2000E+01
 -81.618  0.5063E-46  0.2000E+01
 -81.608  0.1114E-44  0.2000E+01
 -81.598  0.2348E-43  0.2000E+01
 -81.588  0.4741E-42  0.2000E+01
 -81.578  0.9169E-41  0.2000E+01
 -81.568  0.1698E-39  0.2000E+01
 -81.558  0.3014E-38  0.2000E+01
 -81.548  0.5122E-37  0.2000E+01
 -81.538  0.8337E-36  0.2000E+01
 -81.528  0.1300E-34  0.2000E+01
 -81.518  0.1942E-33  0.2000E+01
 -81.508  0.2778E-32  0.2000E+01
 -81.498  0.3807E-31  0.2000E+01
 -81.488  0.4998E-30  0.2000E+01
 -81.478  0.6284E-29  0.2000E+01
 -81.468  0.7569E-28  0.2000E+01
 -81.458  0.8733E-27  0.2000E+01
 -81.448  0.9651E-26  0.2000E+01
 -81.438  0.1022E-24  0.2000E+01
 -81.428  0.1036E-23  0.2000E+01
 -81.418  0.1006E-22  0.2000E+01
 -81.408  0.9364E-22  0.2000E+01
 -81.398  0.8346E-21  0.2000E+01
 -81.388  0.7126E-20  0.2000E+01
 -81.378  0.5828E-19  0.2000E+01
 -81.368  0.4566E-18  0.2000E+01
 -81.358  0.3426E-17  0.2000E+01
 -81.348  0.2463E-16  0.2000E+01
 -81.338  0.1696E-15  0.2000E+01
 -81.328  0.1119E-14  0.2000E+01
 -81.318  0.7071E-14  0.2000E+01
 -81.308  0.4281E-13  0.2000E+01
 -81.298  0.2482E-12  0.2000E+01
 -81.288  0.1379E-11  0.2000E+01
 -81.278  0.7338E-11  0.2000E+01
 -81.268  0.3741E-10  0.2000E+01
 -81.258  0.1827E-09  0.2000E+01
 -81.248  0.8546E-09  0.2000E+01
 -81.238  0.3830E-08  0.2000E+01
 -81.228  0.1644E-07  0.2000E+01
 -81.218  0.6763E-07  0.2000E+01
 -81.208  0.2664E-06  0.2000E+01
 -81.198  0.1006E-05  0.2000E+01
 -81.188  0.3636E-05  0.2000E+01
 -81.178  0.1260E-04  0.2000E+01
 -81.168  0.4180E-04  0.2000E+01
 -81.158  0.1329E-03  0.2000E+01
 -81.148  0.4047E-03  0.2000E+01
 -81.138  0.1181E-02  0.2000E+01
 -81.128  0.3300E-02  0.2000E+01
 -81.118  0.8838E-02  0.2000E+01
 -81.108  0.2267E-01  0.2000E+01
 -81.098  0.5572E-01  0.2001E+01
 -81.088  0.1312E+00  0.2002E+01
 -81.078  0.2959E+00  0.2005E+01
 -81.068  0.6395E+00  0.2012E+01
 -81.058  0.1324E+01  0.2025E+01
 -81.048  0.2626E+01  0.2051E+01
 -81.038  0.4990E+01  0.2101E+01
 -81.028  0.9084E+01  0.2192E+01
 -81.018  0.1584E+02  0.2350E+01
 -81.008  0.2647E+02  0.2615E+01
 -80.998  0.4238E+02  0.3039E+01
 -80.988  0.6500E+02  0.3689E+01
 -80.978  0.9550E+02  0.4644E+01
 -80.968  0.1344E+03  0.5988E+01
 -80.958  0.1813E+03  0.7801E+01
 -80.948  0.2343E+03  0.1014E+02
 -80.938  0.2900E+03  0.1304E+02
 -80.928  0.3439E+03  0.1648E+02
 -80.918  0.3908E+03  0.2039E+02
 -80.908  0.4254E+03  0.2465E+02
 -80.898  0.4437E+03  0.2908E+02
 -80.888  0.4433E+03  0.3352E+02
 -80.878  0.4244E+03  0.3776E+02
 -80.868  0.3892E+03  0.4165E+02
 -80.858  0.3420E+03  0.4507E+02
 -80.848  0.2879E+03  0.4795E+02
 -80.838  0.2322E+03  0.5028E+02
 -80.828  0.1794E+03  0.5207E+02
 -80.818  0.1328E+03  0.5340E+02
 -80.808  0.9422E+02  0.5434E+02
 -80.798  0.6402E+02  0.5498E+02
 -80.788  0.4168E+02  0.5540E+02
 -80.778  0.2600E+02  0.5566E+02
 -80.768  0.1553E+02  0.5581E+02
 -80.758  0.8893E+01  0.5590E+02
 -80.748  0.4877E+01  0.5595E+02
 -80.738  0.2563E+01  0.5598E+02
 -80.728  0.1290E+01  0.5599E+02
 -80.718  0.6222E+00  0.5599E+02
 -80.708  0.2875E+00  0.5600E+02
 -80.698  0.1273E+00  0.5600E+02
 -80.688  0.5397E-01  0.5600E+02
 -80.678  0.2193E-01  0.5600E+02
 -80.668  0.8535E-02  0.5600E+02
 -80.658  0.3183E-02  0.5600E+02
 -80.648  0.1137E-02  0.5600E+02
 -80.638  0.3891E-03  0.5600E+02
 -80.628  0.1276E-03  0.5600E+02
 -80.618  0.4008E-04  0.5600E+02
 -80.608  0.1206E-04  0.5600E+02
 -80.598  0.3477E-05  0.5600E+02
 -80.588  0.9602E-06  0.5600E+02
 -80.578  0.2541E-06  0.5600E+02
 -80.568  0.6439E-07  0.5600E+02
 -80.558  0.1564E-07  0.5600E+02
 -80.548  0.3637E-08  0.5600E+02
 -80.538  0.8105E-09  0.5600E+02
 -80.528  0.1730E-09  0.5600E+02
 -80.518  0.3538E-10  0.5600E+02
 -80.508  0.6932E-11  0.5600E+02
 -80.498  0.1301E-11  0.5600E+02
 -80.488  0.2339E-12  0.5600E+02
 -80.478  0.4028E-13  0.5600E+02
 -80.468  0.6646E-14  0.5600E+02
 -80.458  0.1050E-14  0.5600E+02
 -80.448  0.1590E-15  0.5600E+02
 -80.438  0.2307E-16  0.5600E+02
 -80.428  0.3205E-17  0.5600E+02
 -80.418  0.4265E-18  0.5600E+02
 -80.408  0.5437E-19  0.5600E+02
 -80.398  0.6640E-20  0.5600E+02
 -80.388  0.7768E-21  0.5600E+02
 -80.378  0.8705E-22  0.5600E+02
 -80.368  0.9345E-23  0.5600E+02
 -80.358  0.9609E-24  0.5600E+02
 -80.348  0.9465E-25  0.5600E+02
 -80.338  0.8930E-26  0.5600E+02
 -80.328  0.8071E-27  0.5600E+02
 -80.318  0.6988E-28  0.5600E+02
 -80.308  0.5795E-29  0.5600E+02
 -80.298  0.4603E-30  0.5600E+02
 -80.288  0.3503E-31  0.5600E+02
 -80.278  0.2553E-32  0.5600E+02
 -80.268  0.1782E-33  0.5600E+02
 -80.258  0.1192E-34  0.5600E+02
 -80.248  0.7635E-36  0.5600E+02
 -80.238  0.4685E-37  0.5600E+02
 -80.228  0.2753E-38  0.5600E+02
 -80.218  0.1550E-39  0.5600E+02
 -80.208  0.8358E-41  0.5600E+02
 -80.198  0.4317E-42  0.5600E+02
 -80.188  0.2136E-43  0.5600E+02
 -80.178  0.1012E-44  0.5600E+02
 -80.168  0.4594E-46  0.5600E+02
 -80.158  0.1997E-47  0.5600E+02
 -80.148  0.8318E-49  0.5600E+02
 -80.138  0.3318E-50  0.5600E+02
 -80.128  0.1268E-51  0.5600E+02
 -80.118  0.4639E-53  0.5600E+02
 -80.108  0.1626E-54  0.5600E+02
 -80.098  0.5459E-56  0.5600E+02
 -80.088  0.1755E-57  0.5600E+02
 -80.078  0.5407E-59  0.5600E+02
 -80.068  0.1595E-60  0.5600E+02
 -80.058  0.4507E-62  0.5600E+02
 -80.048  0.1220E-63  0.5600E+02
 -80.038  0.3162E-65  0.5600E+02
 -80.028  0.7852E-67  0.5600E+02
 -80.018  0.1867E-68  0.5600E+02
 -80.008  0.4253E-70  0.5600E+02
 -79.998  0.9279E-72  0.5600E+02
 -79.988  0.1939E-73  0.5600E+02
 -79.978  0.3881E-75  0.5600E+02
 -79.968  0.7440E-77  0.5600E+02
 -79.958  0.1366E-78  0.5600E+02
 -79.948  0.2419E-80  0.5600E+02
 -79.938  0.5734E-82  0.5600E+02
 -79.928  0.1785E-82  0.5600E+02
 -79.918  0.1749E-82  0.5600E+02
 -79.908  0.1749E-82  0.5600E+02
 -79.898  0.1749E-82  0.5600E+02
 -79.888  0.1749E-82  0.5600E+02
 -79.878  0.1749E-82  0.5600E+02
 -79.868  0.1749E-82  0.5600E+02
 -79.858  0.1749E-82  0.5600E+02
 -79.848  0.1749E-82  0.5600E+02
 -79.838  0.1749E-82  0.5600E+02
 -79.828  0.1749E-82  0.5600E+02
 -79.818  0.1749E-82  0.5600E+02
 -79.808  0.1749E-82  0.5600E+02
 -79.798  0.1749E-82  0.5600E+02
 -79.788  0.1749E-82  0.5600E+02
 -79.778  0.1749E-82  0.5600E+02
 -79.768  0.1749E-82  0.5600E+02
 -79.758  0.1749E-82  0.5600E+02
 -79.748  0.1749E-82  0.5600E+02
 -79.738  0.1749E-82  0.5600E+02
 -79.728  0.1749E-82  0.5600E+02
 -79.718  0.1749E-82  0.5600E+02
 -79.708  0.1749E-82  0.5600E+02
 -79.698  0.1749E-82  0.5600E+02
 -79.688  0.1749E-82  0.5600E+02
 -79.678  0.1749E-82  0.5600E+02
 -79.668  0.1749E-82  0.5600E+02
 -79.658  0.1749E-82  0.5600E+02
 -79.648  0.1749E-82  0.5600E+02
 -79.638  0.1749E-82  0.5600E+02
 -79.628  0.1749E-82  0.5600E+02
 -79.618  0.1749E-82  0.5600E+02
 -79.608  0.1749E-82  0.5600E+02
 -79.598  0.1749E-82  0.5600E+02
 -79.588  0.1749E-82  0.5600E+02
 -79.578  0.1749E-82  0.5600E+02
 -79.568  0.1749E-82  0.5600E+02
 -79.558  0.1749E-82  0.5600E+02
 -79.548  0.1749E-82  0.5600E+02
 -79.538  0.1749E-82  0.5600E+02
 -79.528  0.1749E-82  0.5600E+02
 -79.518  0.1749E-82  0.5600E+02
 -79.508  0.1749E-82  0.5600E+02
 -79.498  0.1749E-82  0.5600E+02
 -79.488  0.1749E-82  0.5600E+02
 -79.478  0.1749E-82  0.5600E+02
 -79.468  0.1749E-82  0.5600E+02
 -79.458  0.1749E-82  0.5600E+02
 -79.448  0.1749E-82  0.5600E+02
 -79.438  0.1749E-82  0.5600E+02
 -79.428  0.1749E-82  0.5600E+02
 -79.418  0.1749E-82  0.5600E+02
 -79.408  0.1749E-82  0.5600E+02
 -79.398  0.1749E-82  0.5600E+02
 -79.388  0.1749E-82  0.5600E+02
 -79.378  0.1749E-82  0.5600E+02
 -79.368  0.1749E-82  0.5600E+02
 -79.358  0.1749E-82  0.5600E+02
 -79.348  0.1749E-82  0.5600E+02
 -79.338  0.1749E-82  0.5600E+02
 -79.328  0.1749E-82  0.5600E+02
 -79.318  0.1749E-82  0.5600E+02
 -79.308  0.1749E-82  0.5600E+02
 -79.298  0.1749E-82  0.5600E+02
 -79.288  0.1749E-82  0.5600E+02
 -79.278  0.1749E-82  0.5600E+02
 -79.268  0.1749E-82  0.5600E+02
 -79.258  0.1749E-82  0.5600E+02
 -79.248  0.1749E-82  0.5600E+02
 -79.238  0.1749E-82  0.5600E+02
 -79.228  0.1749E-82  0.5600E+02
 -79.218  0.1749E-82  0.5600E+02
 -79.208  0.1749E-82  0.5600E+02
 -79.198  0.1749E-82  0.5600E+02
 -79.188  0.1749E-82  0.5600E+02
 -79.178  0.1749E-82  0.5600E+02
 -79.168  0.1749E-82  0.5600E+02
 -79.158  0.1749E-82  0.5600E+02
 -79.148  0.1749E-82  0.5600E+02
 -79.138  0.1749E-82  0.5600E+02
 -79.128  0.1749E-82  0.5600E+02
 -79.118  0.1749E-82  0.5600E+02
 -79.108  0.1749E-82  0.5600E+02
 -79.098  0.1749E-82  0.5600E+02
 -79.088  0.1749E-82  0.5600E+02
 -79.078  0.1749E-82  0.5600E+02
 -79.068  0.1749E-82  0.5600E+02
 -79.058  0.1749E-82  0.5600E+02
 -79.048  0.1749E-82  0.5600E+02
 -79.038  0.1749E-82  0.5600E+02
 -79.028  0.1749E-82  0.5600E+02
 -79.018  0.1749E-82  0.5600E+02
 -79.008  0.1749E-82  0.5600E+02
 -78.998  0.1749E-82  0.5600E+02
 -78.988  0.1749E-82  0.5600E+02
 -78.978  0.1749E-82  0.5600E+02
 -78.968  0.1749E-82  0.5600E+02
 -78.958  0.1749E-82  0.5600E+02
 -78.948  0.1749E-82  0.5600E+02
 -78.938  0.1749E-82  0.5600E+02
 -78.928  0.1749E-82  0.5600E+02
 -78.918  0.1749E-82  0.5600E+02
 -78.908  0.1749E-82  0.5600E+02
 -78.898  0.1749E-82  0.5600E+02
 -78.888  0.1749E-82  0.5600E+02
 -78.878  0.1749E-82  0.5600E+02
 -78.868  0.1749E-82  0.5600E+02
 -78.858  0.1749E-82  0.5600E+02
 -78.848  0.1749E-82  0.5600E+02
 -78.838  0.1749E-82  0.5600E+02
 -78.828  0.1749E-82  0.5600E+02
 -78.818  0.1749E-82  0.5600E+02
 -78.808  0.1749E-82  0.5600E+02
 -78.798  0.1749E-82  0.5600E+02
 -78.788  0.1749E-82  0.5600E+02
 -78.778  0.1749E-82  0.5600E+02
 -78.768  0.1749E-82  0.5600E+02
 -78.758  0.1749E-82  0.5600E+02
 -78.748  0.1749E-82  0.5600E+02
 -78.738  0.1749E-82  0.5600E+02
 -78.728  0.1749E-82  0.5600E+02
 -78.718  0.1749E-82  0.5600E+02
 -78.708  0.1749E-82  0.5600E+02
 -78.698  0.1749E-82  0.5600E+02
 -78.688  0.1749E-82  0.5600E+02
 -78.678  0.1749E-82  0.5600E+02
 -78.668  0.1749E-82  0.5600E+02
 -78.658  0.1749E-82  0.5600E+02
 -78.648  0.1749E-82  0.5600E+02
 -78.638  0.1749E-82  0.5600E+02
 -78.628  0.1749E-82  0.5600E+02
 -78.618  0.1749E-82  0.5600E+02
 -78.608  0.1749E-82  0.5600E+02
 -78.598  0.1749E-82  0.5600E+02
 -78.588  0.1749E-82  0.5600E+02
 -78.578  0.1749E-82  0.5600E+02
 -78.568  0.1749E-82  0.5600E+02
 -78.558  0.1749E-82  0.5600E+02
 -78.548  0.1749E-82  0.5600E+02
 -78.538  0.1749E-82  0.5600E+02
 -78.528  0.1749E-82  0.5600E+02
 -78.518  0.1749E-82  0.5600E+02
 -78.508  0.1749E-82  0.5600E+02
 -78.498  0.1749E-82  0.5600E+02
 -78.488  0.1749E-82  0.5600E+02
 -78.478  0.1749E-82  0.5600E+02
 -78.468  0.1749E-82  0.5600E+02
 -78.458  0.1749E-82  0.5600E+02
 -78.448  0.1749E-82  0.5600E+02
 -78.438  0.1749E-82  0.5600E+02
 -78.428  0.1749E-82  0.5600E+02
 -78.418  0.1749E-82  0.5600E+02
 -78.408  0.1749E-82  0.5600E+02
 -78.398  0.1749E-82  0.5600E+02
 -78.388  0.1749E-82  0.5600E+02
 -78.378  0.1749E-82  0.5600E+02
 -78.368  0.1749E-82  0.5600E+02
 -78.358  0.1749E-82  0.5600E+02
 -78.348  0.1749E-82  0.5600E+02
 -78.338  0.1749E-82  0.5600E+02
 -78.328  0.1749E-82  0.5600E+02
 -78.318  0.1749E-82  0.5600E+02
 -78.308  0.1749E-82  0.5600E+02
 -78.298  0.1749E-82  0.5600E+02
 -78.288  0.1749E-82  0.5600E+02
 -78.278  0.1749E-82  0.5600E+02
 -78.268  0.1749E-82  0.5600E+02
 -78.258  0.1749E-82  0.5600E+02
 -78.248  0.1749E-82  0.5600E+02
 -78.238  0.1749E-82  0.5600E+02
 -78.228  0.1749E-82  0.5600E+02
 -78.218  0.1749E-82  0.5600E+02
 -78.208  0.1749E-82  0.5600E+02
 -78.198  0.1749E-82  0.5600E+02
 -78.188  0.1749E-82  0.5600E+02
 -78.178  0.1749E-82  0.5600E+02
 -78.168  0.1749E-82  0.5600E+02
 -78.158  0.1749E-82  0.5600E+02
 -78.148  0.1749E-82  0.5600E+02
 -78.138  0.1749E-82  0.5600E+02
 -78.128  0.1749E-82  0.5600E+02
 -78.118  0.1749E-82  0.5600E+02
 -78.108  0.1749E-82  0.5600E+02
 -78.098  0.1749E-82  0.5600E+02
 -78.088  0.1749E-82  0.5600E+02
 -78.078  0.1749E-82  0.5600E+02
 -78.068  0.1749E-82  0.5600E+02
 -78.058  0.1749E-82  0.5600E+02
 -78.048  0.1749E-82  0.5600E+02
 -78.038  0.1749E-82  0.5600E+02
 -78.028  0.1749E-82  0.5600E+02
 -78.018  0.1749E-82  0.5600E+02
 -78.008  0.1749E-82  0.5600E+02
 -77.998  0.1749E-82  0.5600E+02
 -77.988  0.1749E-82  0.5600E+02
